988.543	3779.17
986.95	3699.13
985.357	3767.09
983.763	3824.04
982.169	3832.35
980.574	3771.69
978.979	3833.31
977.383	3847.89
975.787	3970.54
974.19	4019.53
972.593	4001.19
970.996	4043.9
969.398	4036.52
967.8	4137.08
966.201	4165.65
964.602	4162.95
963.002	4161.82
961.402	4304.43
959.801	4159.57
958.2	4402.06
956.599	4416.49
954.997	4435.6
953.395	4367.33
951.792	4472.25
950.189	4606.76
948.586	4543.19
946.982	4652.67
945.377	4651.46
943.773	4726.59
942.168	4739.39
940.562	4736.62
938.956	4836.59
937.35	4939.63
935.743	4943.05
934.136	4954.25
932.528	4988.77
930.92	5223.83
929.312	5140.15
927.703	5110.9
926.094	5322.48
924.484	5391.06
922.874	5271.72
921.263	5351.15
919.653	5484.88
918.042	5499.06
916.43	5632.69
914.818	5760.06
913.206	5665.64
911.593	5709.24
909.98	5830.31
908.366	5945.13
906.752	5929.79
905.138	6070.87
903.523	6047.76
901.908	6103.62
900.293	6136.24
898.677	6340.6
897.061	6221.56
895.445	6442.82
893.828	6422.79
892.21	6484.69
890.593	6497.12
888.975	6469.37
887.356	6464.81
885.738	6657.94
884.119	6695.04
882.499	6722.86
880.879	6715.18
879.259	6991.42
877.638	6844.85
876.018	6911.19
874.396	7040.72
872.775	7113.17
871.153	7159.38
869.53	7350.43
867.908	7284.11
866.284	7576.72
864.661	7465.73
863.037	7628.85
861.413	7627.2
859.789	7665.56
858.164	7790.08
856.539	7886.86
854.913	8078.95
853.287	7948.06
851.661	8064.74
850.035	8167.55
848.408	8027.52
846.78	8124.14
845.153	8073.28
843.525	7980.97
841.897	8074.49
840.268	7879.39
838.639	7940.67
837.01	7912.93
835.38	7876
833.75	7820.68
832.12	7852.8
830.489	7782.19
828.858	7838.83
827.227	7691.64
825.595	7791.18
823.963	7717.59
822.331	7640.97
820.698	7519.97
819.065	7385.25
817.432	7374.57
815.798	7397.56
814.164	7269.08
812.53	7163.59
810.895	7036.74
809.26	6963.46
807.625	6917.73
805.99	6714.59
804.354	6688.79
802.717	6623.29
801.081	6566.98
799.444	6489.31
797.807	6350.6
796.169	6324.91
794.531	6256.5
792.893	6206.43
791.254	6165.54
789.615	6010.26
787.976	6099.06
786.337	6164.95
784.697	6076.85
783.057	6010.11
781.416	6085.14
779.775	6003.2
778.134	6087.33
776.493	6075.49
774.851	6168.72
773.209	6234.51
771.567	6143.49
769.924	6152.96
768.281	6201.98
766.638	6211.43
764.994	6306.05
763.35	6397.6
761.706	6435.9
760.061	6515.23
758.416	6495.73
756.771	6649.48
755.125	6712.01
753.48	6725.92
751.833	6718.55
750.187	6781.04
748.54	6908.78
746.893	7060.76
745.245	6950.15
743.598	7124.82
741.95	7178.07
740.301	7187.32
738.653	7217.79
737.003	7352.87
735.354	7443.93
733.705	7504.65
732.055	7609.29
730.404	7657.84
728.754	7774.52
727.103	7832.11
725.452	7985.06
723.8	8175.79
722.148	8204.51
720.496	8358.82
718.844	8378.42
717.191	8514.48
715.538	8697.38
713.884	8825.77
712.231	8836.19
710.577	8993.23
708.922	9109.4
707.268	9146.97
705.613	9267.6
703.957	9629.84
702.302	9670.3
700.646	9968.92
698.99	10004.8
697.333	10298.7
695.676	10453.7
694.019	10573.9
692.362	10609.6
690.704	10845.9
689.046	11155.9
687.388	11327.2
685.729	11376.3
684.07	11788.6
682.41	11950.6
680.751	12166.7
679.091	12387.3
677.431	12731.3
675.77	13075.2
674.109	13375.2
672.448	13729.4
670.786	13848.7
669.124	14134.9
667.462	14542.8
665.8	14855.9
664.137	15280
662.474	15355.3
660.811	15974.6
659.147	16365.3
657.483	16494.4
655.818	17200.2
654.154	17314.1
652.489	18051.1
650.823	18175.3
649.158	18793.2
647.492	19059.7
645.826	19327.7
644.159	19583.5
642.492	19932.2
640.825	20342.3
639.157	20576.8
637.489	20652.3
635.821	20931.6
634.153	20735.9
632.484	20884.7
630.815	20888.2
629.145	21084.9
627.476	20782.9
625.806	21335.8
624.135	20740.5
622.464	20694.6
620.793	20424.4
619.122	20532.6
617.45	20385.1
615.778	20526.2
614.106	20129.1
612.433	19832.3
610.76	20096
609.087	19761.9
607.414	19699.8
605.74	19658.7
604.065	19354.7
602.391	19464.5
600.716	19208.4
599.041	19003.2
597.365	18817.5
595.689	18521.5
594.013	18446.3
592.336	18286.1
590.659	17829.4
588.982	17645.5
587.305	17312.7
585.627	17094.8
583.949	16513.4
582.27	16548.9
580.591	16329.8
578.912	16345.9
577.233	15924.4
575.553	16397.5
573.873	15974.7
572.192	15842.2
570.511	15736.4
568.83	15672.3
567.149	15229.1
565.467	15089.4
563.785	14735.7
562.102	14763.9
560.42	14468.4
558.736	14367.5
557.053	14239.9
555.369	14017.3
553.685	13852.7
552	13940.5
550.316	13664.7
548.631	13590.7
546.945	13137.1
545.259	12827.5
543.573	12747.8
541.887	12474
540.2	12028.4
538.512	12082.3
536.825	11851.7
535.137	11769.3
533.449	11306.4
531.76	11191.6
530.071	10983.6
528.382	10925.1
526.693	10814.9
525.003	10620.4
523.313	10665.6
521.622	10389.8
519.931	10304.9
518.24	10486.1
516.548	10226.9
514.856	10147.9
513.164	9871.09
511.471	9781.94
509.778	9701.67
508.085	9633.25
506.391	9414.3
504.697	9379.9
503.003	9186.17
501.308	9122.32
499.613	9037.85
497.917	8997.66
496.222	8843.95
494.525	8797.91
492.829	8379.06
491.132	8325.76
489.435	8245.96
487.737	8095.51
486.039	8269.05
484.341	8224.64
482.643	8041.9
480.944	8025.51
479.244	7844.36
477.545	7805.95
475.845	7789.62
474.144	7688.01
472.444	7651.13
470.742	7433.49
469.041	7428.99
467.339	7204.14
465.637	7400.91
463.935	7276
462.232	7187.86
460.528	7079.19
458.825	7102.65
457.121	7126.09
455.417	7058.58
453.712	6885.5
452.007	6756.48
450.302	6799.03
448.596	6752.16
446.89	6711.16
445.183	6627.7
443.476	6620.43
441.769	6482.84
440.062	6544.41
438.354	6578.15
436.645	6499.19
434.937	6505.12
433.228	6597.35
431.518	6495.03
429.809	6648.63
428.098	6732
426.388	6619.48
424.677	6758.34
422.966	6935.13
421.254	6894.2
419.542	6900.02
417.83	6866.42
416.117	7002.16
414.404	7013.78
412.691	7013.73
410.977	7090.99
409.263	7106.97
407.548	6939.21
405.833	6965.41
404.118	6872.08
402.403	6975.51
400.687	7008.97
398.97	7038.04
397.253	7078.75
395.536	6902.5
393.819	6928.66
392.101	7100.34
390.383	7113.35
388.664	7031.8
386.945	7065.17
385.226	7134.89
383.506	7235.09
381.786	7227.71
380.065	7138.95
378.344	7372.74
376.623	7289.8
374.902	7337.58
373.18	7578.43
371.457	7379.38
369.734	7676.71
368.011	7614.1
366.288	7857.58
364.564	7893.57
362.84	7768.6
361.115	7848.08
359.39	8053.61
357.665	8188.05
355.939	8281.87
354.213	8420.55
352.486	8512.83
350.759	8677.45
349.032	8726.21
347.305	8978.98
345.577	9059.48
343.848	9054.6
342.119	9259.41
340.39	9550.88
338.661	9664.43
336.931	9909.43
335.2	9995.4
333.47	10256.1
331.739	10401.2
330.007	10547.6
328.275	10780.6
326.543	11059.7
324.811	11172.7
323.078	11421.3
321.344	11789.4
319.611	11798.4
317.877	12177.9
316.142	12235.7
314.407	12604.8
312.672	12586.2
310.936	13156.8
309.2	13240.3
307.464	13650.6
305.727	13889.5
303.99	14403.1
302.253	14287.7
300.515	14662.9
298.777	15056.7
297.038	15204.4
295.299	15595
293.559	15713.7
291.82	16111.2
290.08	16024.4
288.339	16405.9
286.598	16617.7
284.857	16683
283.115	16922
281.373	16836.5
279.631	16868.7
277.888	17183.5
276.145	17191.2
274.401	17518.7
272.657	17547.9
270.913	17802.1
269.168	17633.5
267.423	17995
265.678	17823.5
263.932	18096.1
262.186	18110.8
260.439	17983.8
258.692	18257.6
256.945	18488.3
255.197	18445.7
253.449	18660.6
251.701	18722.4
249.952	18994.3
248.203	19176
246.453	19147.6
244.703	19177.8
242.953	19565.1
241.202	19451
239.451	20016.5
237.7	20125.1
235.948	20149.3
234.196	20363.4
232.443	20624.4
230.69	20845.4
228.937	20973.6
227.183	21140.3
225.429	21228.5
223.675	21395.1
221.92	21225.3
220.165	21722.3
218.41	21823.2
216.654	21639.2
214.898	21986.3
213.141	21833.8
211.384	21907.5
209.627	22035.3
207.869	21942.6
206.111	22350.4
204.353	22395.6
202.594	22563
200.835	22649.4
199.075	22703
197.316	23036.5
195.555	23034.6
193.795	23275.6
192.034	23201.4
190.273	23328.7
188.511	22953.6
186.749	23412.9
184.987	23371.4
183.224	23039.1
181.461	23214.6
179.698	23000.1
177.934	22576
176.17	22683.5
174.406	22309.2
172.641	22130.5
170.876	21937.8
169.11	21824.5
167.345	21551.2
165.578	21576.8
163.812	21620.7
162.045	21687.2
160.278	21369
158.51	21850
156.743	21799.2
154.974	21830.4
153.206	21913.9
151.437	22059.5
149.668	22258.8
147.898	22196.7
146.128	22992
144.358	22660.1
142.588	23010.3
140.817	23085
139.046	23176.7
137.274	23065.2
135.502	23429.2
133.73	23426.4
131.958	23409.4
130.185	23431.9
128.412	23481.3
126.638	23757.6
124.865	23768.8
123.091	24183.1
121.316	24339.4
119.542	24299.9
117.767	24859
115.991	24970.1
114.216	25234.6
112.44	25831.3
110.663	26147.8
108.887	26744.1
107.11	26847.9
105.333	27598.7
103.555	27499.8
101.778	27429.1
99.9995	27288.1
98.2212	26922.2
96.4425	26480.6
94.6635	26143.2
92.8843	25710.4
91.1048	25140
89.3249	24654.1
87.5448	24572.9
85.7644	24601.2
83.9838	24559.4
82.2028	24144.2
80.4215	24022.5
78.64	23892.5
76.8582	23888.8
75.0761	23485.2
73.2938	23208.1
71.5112	22761.4
69.7283	22682.2
67.9451	22221.8
66.1617	22247.9
64.378	21215.8
62.594	20872.2
60.8098	19954.2
59.0254	18647
