988.543	4937.4
986.95	4775.75
985.357	4964.22
983.763	4932.98
982.169	4951.95
980.574	4939.57
978.979	4956.97
977.383	4994.73
975.787	5018.39
974.19	5153.21
972.593	5123.59
970.996	5137.82
969.398	5172.38
967.8	5124.03
966.201	5182.04
964.602	5286.93
963.002	5176.09
961.402	5318.43
959.801	5338.87
958.2	5440.5
956.599	5359.42
954.997	5381.41
953.395	5458
951.792	5532.99
950.189	5442.65
948.586	5625.19
946.982	5686.07
945.377	5725.11
943.773	5731.42
942.168	5655.19
940.562	5807.89
938.956	5832.87
937.35	5924.76
935.743	5966.82
934.136	6066.42
932.528	6046.24
930.92	6113.13
929.312	6166.01
927.703	6108.53
926.094	6226.64
924.484	6343.15
922.874	6380.41
921.263	6381.95
919.653	6538.71
918.042	6467.29
916.43	6575.87
914.818	6419.19
913.206	6560.3
911.593	6656.39
909.98	6687.35
908.366	6744.64
906.752	6763.18
905.138	6794.1
903.523	6880.76
901.908	7046.33
900.293	6928.61
898.677	7058.52
897.061	7072.35
895.445	7084.63
893.828	7209.79
892.21	7155.57
890.593	7164.76
888.975	7430.42
887.356	7373.12
885.738	7470.3
884.119	7468.61
882.499	7440.68
880.879	7503.84
879.259	7438.89
877.638	7579.16
876.018	7555.88
874.396	7654.44
872.775	7902.49
871.153	7771.28
869.53	7919.05
867.908	8006.67
866.284	8048.05
864.661	8177.19
863.037	8218.53
861.413	8175.19
859.789	8324.24
858.164	8399.38
856.539	8454.49
854.913	8354.25
853.287	8489.31
851.661	8430.62
850.035	8479.55
848.408	8342.53
846.78	8640.35
845.153	8552.51
843.525	8480.07
841.897	8396.92
840.268	8364.46
838.639	8285.98
837.01	8337.96
835.38	8124.52
833.75	8236.33
832.12	8323.57
830.489	8326.45
828.858	8327.8
827.227	8185.1
825.595	8355.03
823.963	8134.26
822.331	7962.6
820.698	8072.76
819.065	7910.37
817.432	8044.99
815.798	7888.8
814.164	7669.94
812.53	7624.03
810.895	7602.62
809.26	7461.94
807.625	7339.67
805.99	7359.6
804.354	7133.49
802.717	7182.49
801.081	7098.57
799.444	7120.07
797.807	6950.69
796.169	6888.25
794.531	6865.51
792.893	6795.49
791.254	6713.28
789.615	6731.79
787.976	6719.79
786.337	6753.55
784.697	6750.7
783.057	6750.9
781.416	6652.05
779.775	6608.09
778.134	6593.09
776.493	6639.02
774.851	6683.41
773.209	6822.18
771.567	6720.4
769.924	6744.97
768.281	6854.74
766.638	6784.95
764.994	6818.63
763.35	6920.72
761.706	7050.14
760.061	6831.41
758.416	6991.2
756.771	7074.95
755.125	7081.19
753.48	7142.11
751.833	7263.75
750.187	7383.83
748.54	7209.36
746.893	7485.74
745.245	7318.9
743.598	7540.53
741.95	7522.41
740.301	7483.06
738.653	7642.37
737.003	7722.78
735.354	7759.21
733.705	7839.57
732.055	7836.57
730.404	7957.79
728.754	7927.5
727.103	8038.06
725.452	8197.02
723.8	8224.23
722.148	8162.14
720.496	8316.45
718.844	8448.01
717.191	8597.67
715.538	8647.47
713.884	8656.42
712.231	8848.29
710.577	8681.87
708.922	8983.97
707.268	9190.78
705.613	9093.88
703.957	9462.19
702.302	9517.79
700.646	9638.28
698.99	9675.71
697.333	9704.07
695.676	9958.75
694.019	10003.6
692.362	10145
690.704	10278.9
689.046	10463.9
687.388	10576.5
685.729	10681.5
684.07	10833.2
682.41	10746.8
680.751	11279.5
679.091	11468.6
677.431	11493.6
675.77	11697.6
674.109	11996.5
672.448	12194.4
670.786	12283.8
669.124	12788.5
667.462	12853.7
665.8	13234.8
664.137	13348
662.474	13589
660.811	13992.3
659.147	14169.9
657.483	14159.7
655.818	14825.5
654.154	14728
652.489	15300.3
650.823	15339.5
649.158	15690.8
647.492	15818.3
645.826	16152.9
644.159	16547.4
642.492	16592.2
640.825	16793
639.157	16872.2
637.489	17114.8
635.821	17438.3
634.153	17400.5
632.484	17707.3
630.815	17241.1
629.145	17711
627.476	17511.5
625.806	17530.6
624.135	17566.1
622.464	17496.9
620.793	17264.7
619.122	17337.6
617.45	17053.1
615.778	17278.6
614.106	17016.7
612.433	16751.8
610.76	16963.8
609.087	16521.3
607.414	16489.7
605.74	16501.5
604.065	16145.9
602.391	16253.2
600.716	16068
599.041	15879.8
597.365	15824.5
595.689	15590.2
594.013	15549.9
592.336	15435
590.659	15305.3
588.982	14908.8
587.305	14682.4
585.627	14420.2
583.949	14195.4
582.27	14028.8
580.591	13841.4
578.912	14001
577.233	13708
575.553	14019.3
573.873	14003.2
572.192	13856.1
570.511	13725.5
568.83	13880.4
567.149	13540.2
565.467	13321.9
563.785	13194.5
562.102	13337.5
560.42	13011
558.736	12754.4
557.053	12839.5
555.369	12664.7
553.685	12663.7
552	12647.8
550.316	12283.2
548.631	12309
546.945	11981.7
545.259	11658.9
543.573	11538
541.887	11504.6
540.2	11225.1
538.512	11117.7
536.825	10822.1
535.137	10834.7
533.449	10585.2
531.76	10562.4
530.071	10391.5
528.382	10308
526.693	10183.1
525.003	10114.5
523.313	10039.9
521.622	10006.8
519.931	9756.43
518.24	9822.44
516.548	9718.47
514.856	9546.56
513.164	9621.43
511.471	9356.57
509.778	9370.9
508.085	9180.01
506.391	9271.12
504.697	9099.51
503.003	8855.67
501.308	8867.12
499.613	8651.44
497.917	8820.71
496.222	8692.11
494.525	8600.4
492.829	8371.69
491.132	8123.91
489.435	8055.94
487.737	8129.38
486.039	8135.06
484.341	8181.95
482.643	8093.41
480.944	8225.64
479.244	7973.82
477.545	7941.27
475.845	7874.91
474.144	7752.7
472.444	7730.5
470.742	7784.73
469.041	7608.25
467.339	7423.03
465.637	7487.56
463.935	7497.73
462.232	7466.8
460.528	7293.49
458.825	7255.27
457.121	7233.2
455.417	7230.2
453.712	7149.48
452.007	7155.3
450.302	7070.23
448.596	7077.53
446.89	7021.81
445.183	6945.6
443.476	6834.28
441.769	6844.54
440.062	6919.22
438.354	6894.32
436.645	7058.22
434.937	6895.77
433.228	6815.31
431.518	7063.94
429.809	6949.84
428.098	6973.21
426.388	7059.41
424.677	7018.45
422.966	7183.49
421.254	7180.49
419.542	7408.22
417.83	7285.44
416.117	7297.01
414.404	7366.95
412.691	7525.87
410.977	7540.29
409.263	7363.65
407.548	7370.81
405.833	7472.73
404.118	7320.99
402.403	7450.55
400.687	7344.05
398.97	7444.42
397.253	7362.71
395.536	7374.22
393.819	7407.56
392.101	7497.63
390.383	7474.18
388.664	7490.01
386.945	7465.12
385.226	7713.59
383.506	7496.76
381.786	7599.77
380.065	7641.71
378.344	7789.68
376.623	7664.53
374.902	7944.57
373.18	7942.84
371.457	8070.29
369.734	8000.32
368.011	8024.69
366.288	8252.12
364.564	8247.42
362.84	8580.55
361.115	8480.1
359.39	8539.12
357.665	8825.59
355.939	8843.94
354.213	8952.08
352.486	8824.15
350.759	9081.35
349.032	9174.89
347.305	9384.15
345.577	9484.82
343.848	9623.05
342.119	9765.55
340.39	10032.3
338.661	9960.75
336.931	10155.1
335.2	10376.8
333.47	10461.2
331.739	10916.8
330.007	10822
328.275	11154.5
326.543	11367.1
324.811	11656.1
323.078	11757.4
321.344	11971.2
319.611	12120
317.877	12300.4
316.142	12511
314.407	12756.2
312.672	12896
310.936	13280.6
309.2	13318.1
307.464	13793.2
305.727	13944.2
303.99	14191.5
302.253	14431.6
300.515	14698.9
298.777	14891.3
297.038	15076.4
295.299	15551.8
293.559	15837.4
291.82	15997.7
290.08	16254.3
288.339	16230.6
286.598	16676.6
284.857	16832.3
283.115	16820
281.373	16813.5
279.631	17065.3
277.888	16966.9
276.145	17135.3
274.401	17449.9
272.657	17337.2
270.913	17625.8
269.168	17387
267.423	17601
265.678	17687.5
263.932	17802.5
262.186	17722.8
260.439	17829.2
258.692	17992.8
256.945	18051.9
255.197	18244
253.449	18278.7
251.701	18161.9
249.952	18503.9
248.203	18714.4
246.453	18796.1
244.703	18793.5
242.953	19073.8
241.202	19145.4
239.451	19248.4
237.7	19372.8
235.948	19617
234.196	19789.8
232.443	19931.1
230.69	20140.9
228.937	20343.4
227.183	20354.8
225.429	20585.7
223.675	20909.1
221.92	20988.8
220.165	21201
218.41	21237.8
216.654	21239.1
214.898	21251.8
213.141	21557.7
211.384	21348.3
209.627	21659.7
207.869	21840.1
206.111	21847
204.353	21883.8
202.594	22112.4
200.835	22206
199.075	22261.1
197.316	22552
195.555	22601.4
193.795	22709
192.034	22846.4
190.273	22654.4
188.511	22725.1
186.749	22978.8
184.987	22896.1
183.224	22759.7
181.461	22782.1
179.698	22686.8
177.934	22387.5
176.17	22241.3
174.406	22194.4
172.641	21814.6
170.876	21514.3
169.11	21483.2
167.345	21069.9
165.578	21215.8
163.812	21111.2
162.045	21141.1
160.278	20998.4
158.51	21229.1
156.743	20919.6
154.974	21362.4
153.206	21134.9
151.437	21253.9
149.668	21406.7
147.898	21195
146.128	21942.5
144.358	21506.2
142.588	21945.6
140.817	21854
139.046	22273.4
137.274	22205.8
135.502	22239.8
133.73	22279.4
131.958	22176.6
130.185	22138.8
128.412	22206.7
126.638	22395.8
124.865	22238.2
123.091	22634.4
121.316	22827.6
119.542	22772.9
117.767	23175.9
115.991	23239.4
114.216	23560.6
112.44	24261.7
110.663	24464.4
108.887	24838.8
107.11	25191.9
105.333	25667.3
103.555	25399.9
101.778	25433.6
99.9995	25045.5
98.2212	24698.3
96.4425	24071.5
94.6635	23741.5
92.8843	23639.2
91.1048	22747.5
89.3249	22698.9
87.5448	22259.8
85.7644	22030.2
83.9838	21908.7
82.2028	21620.3
80.4215	21573.4
78.64	21415.7
76.8582	21206.1
75.0761	21066.7
73.2938	20860.1
71.5112	20363.3
69.7283	20384
67.9451	20024.8
66.1617	20065.3
64.378	19294.3
62.594	18855.6
60.8098	18187.3
59.0254	17044.2
