988.543	4421.06
986.95	4504.24
985.357	4504.51
983.763	4490.66
982.169	4454.88
980.574	4478.69
978.979	4532.26
977.383	4599.92
975.787	4571.99
974.19	4561.32
972.593	4693.1
970.996	4671.45
969.398	4709.27
967.8	4822.16
966.201	4872.44
964.602	4938.32
963.002	4907.29
961.402	4912.21
959.801	4834.35
958.2	4917.37
956.599	4930.11
954.997	5066.14
953.395	5005.5
951.792	4980.78
950.189	5260.18
948.586	5171.5
946.982	5280.82
945.377	5254.51
943.773	5304.56
942.168	5405.99
940.562	5485.57
938.956	5568.23
937.35	5457.88
935.743	5576.3
934.136	5699.33
932.528	5820.75
930.92	5738.44
929.312	5811.62
927.703	5866.12
926.094	5799.42
924.484	5957.96
922.874	5995.32
921.263	6035.77
919.653	6060.68
918.042	6161.62
916.43	6223.73
914.818	6422.29
913.206	6324.62
911.593	6335.51
909.98	6416.13
908.366	6530.82
906.752	6513.78
905.138	6484.37
903.523	6648.51
901.908	6671.72
900.293	6629.93
898.677	6886.77
897.061	6685.63
895.445	6888.22
893.828	6967.04
892.21	6993.26
890.593	7033.39
888.975	6969.98
887.356	7102.79
885.738	7266.43
884.119	7138.18
882.499	7297.12
880.879	7295.48
879.259	7392.6
877.638	7355.47
876.018	7523.49
874.396	7548.04
872.775	7689.74
871.153	7752.78
869.53	7781.9
867.908	7877.26
866.284	8026.48
864.661	8095.57
863.037	8004.52
861.413	8041.27
859.789	8225.74
858.164	8293.21
856.539	8236.05
854.913	8494.2
853.287	8441.65
851.661	8562.83
850.035	8401.17
848.408	8314.87
846.78	8600.41
845.153	8354.37
843.525	8335.72
841.897	8370.82
840.268	8316.87
838.639	8427.17
837.01	8350.23
835.38	8277.93
833.75	8362.1
832.12	8239.23
830.489	8255.93
828.858	8268.02
827.227	8091.62
825.595	8062.38
823.963	8030.09
822.331	8023.86
820.698	8072.76
819.065	7836.88
817.432	7665.39
815.798	7616.4
814.164	7711.25
812.53	7490.95
810.895	7481.79
809.26	7224.93
807.625	7324.38
805.99	7122.69
804.354	7089.17
802.717	6948.72
801.081	6994.69
799.444	6843.63
797.807	6750.66
796.169	6836.34
794.531	6751.04
792.893	6734.44
791.254	6484.42
789.615	6483.14
787.976	6558.13
786.337	6555.32
784.697	6535.74
783.057	6465.87
781.416	6656.62
779.775	6515.14
778.134	6559.58
776.493	6439.5
774.851	6512.86
773.209	6683.64
771.567	6540.78
769.924	6649.09
768.281	6740.62
766.638	6784.95
764.994	6853.61
763.35	6721.51
761.706	6913.31
760.061	6884.61
758.416	6983.6
756.771	7029.36
755.125	6996.11
753.48	7070.72
751.833	7142.26
750.187	7269.95
748.54	7209.36
746.893	7431.1
745.245	7414.5
743.598	7441.92
741.95	7657.42
740.301	7610.46
738.653	7716.67
737.003	7690.95
735.354	7631.89
733.705	7883.52
732.055	7950.21
730.404	8051.71
728.754	8085.02
727.103	8284.89
725.452	8233.36
723.8	8431.62
722.148	8392.18
720.496	8669.02
718.844	8614.43
717.191	8782.21
715.538	8804.75
713.884	9016.28
712.231	9029.7
710.577	9043.11
708.922	9304.34
707.268	9358.49
705.613	9424.7
703.957	9646.45
702.302	9723.15
700.646	9965.9
698.99	9900.62
697.333	10277.6
695.676	10441.6
694.019	10564.8
692.362	10478.4
690.704	10797.6
689.046	10949.4
687.388	11254.8
685.729	11355.2
684.07	11485.7
682.41	11698.9
680.751	11975.4
679.091	12144.8
677.431	12421.1
675.77	12570.8
674.109	12881.5
672.448	13180.1
670.786	13459
669.124	13644.5
667.462	13872
665.8	14343.1
664.137	14412.5
662.474	14730
660.811	15185.6
659.147	15358.5
657.483	15791.3
655.818	16269
654.154	16262.9
652.489	16988
650.823	17031.3
649.158	17332.8
647.492	17571.1
645.826	18082.4
644.159	18323.5
642.492	18565.9
640.825	18928.3
639.157	18785.2
637.489	19259.8
635.821	19608.3
634.153	19384.3
632.484	19879.5
630.815	19616.6
629.145	19672.7
627.476	19588.1
625.806	19629.3
624.135	19821.6
622.464	19359.9
620.793	19398.1
619.122	19259.7
617.45	19061.6
615.778	19478.1
614.106	19088.6
612.433	18790.5
610.76	18752.5
609.087	18908.8
607.414	18466
605.74	18635.6
604.065	18494.7
602.391	18308.9
600.716	18083
599.041	17940.7
597.365	17637.3
595.689	17708.5
594.013	17412.7
592.336	17369.1
590.659	17097.3
588.982	16672.2
587.305	16461.8
585.627	16252.9
583.949	15947.3
582.27	15966.6
580.591	15838.4
578.912	15536
577.233	15528.5
575.553	15845.4
573.873	15577.4
572.192	15418.2
570.511	15250
568.83	15242.6
567.149	15025.5
565.467	14844.1
563.785	14691.1
562.102	14558.9
560.42	14376.2
558.736	14100.1
557.053	14020.1
555.369	13858.4
553.685	13998.2
552	13738.6
550.316	13667.6
548.631	13380.1
546.945	12942.8
545.259	12872
543.573	12651.5
541.887	12539.2
540.2	12207.7
538.512	12014.1
536.825	11949.5
535.137	11613.8
533.449	11454.5
531.76	11262.7
530.071	11186.4
528.382	11123.5
526.693	11059.1
525.003	10870.4
523.313	10832.7
521.622	10629.4
519.931	10501.6
518.24	10503.9
516.548	10359.9
514.856	10283.9
513.164	10249.3
511.471	10010.9
509.778	9890.69
508.085	9859.14
506.391	9832.02
504.697	9635.21
503.003	9438.47
501.308	9415.88
499.613	9216.31
497.917	9305.83
496.222	9085.73
494.525	9086.8
492.829	8834.41
491.132	8699.98
489.435	8623.06
487.737	8494.62
486.039	8668.07
484.341	8561.75
482.643	8446.65
480.944	8341.88
479.244	8365.16
477.545	8194.26
475.845	8138.14
474.144	8133.5
472.444	7995.09
470.742	8055.15
469.041	7899.18
467.339	7716.83
465.637	7781.31
463.935	7728.28
462.232	7816.21
460.528	7551.82
458.825	7506.21
457.121	7539.84
455.417	7398.9
453.712	7401.73
452.007	7448.55
450.302	7363.42
448.596	7238.75
446.89	7253.33
445.183	7262.05
443.476	7080.35
441.769	7056.88
440.062	7160.79
438.354	7036.31
436.645	7008.47
434.937	7125.49
433.228	7075.69
431.518	7040.54
429.809	7112.15
428.098	7110.63
426.388	7125.18
424.677	7189.41
422.966	7199.56
421.254	7428.8
419.542	7460.79
417.83	7466.48
416.117	7513.05
414.404	7461.81
412.691	7623.62
410.977	7677.41
409.263	7540.12
407.548	7509.33
405.833	7577.69
404.118	7590.63
402.403	7637.07
400.687	7524.7
398.97	7499.76
397.253	7486.49
395.536	7684.33
393.819	7595.33
392.101	7606.78
390.383	7672.06
388.664	7698.03
386.945	7706.54
385.226	7681.6
383.506	7895.08
381.786	7782.9
380.065	7885.83
378.344	7990.16
376.623	7920.16
374.902	7983.78
373.18	8252.07
371.457	8077.55
369.734	8183.17
368.011	8252.48
366.288	8353.66
364.564	8399.7
362.84	8595.05
361.115	8638.11
359.39	8791.29
357.665	8851.67
355.939	9004.74
354.213	9217.13
352.486	9218.01
350.759	9343.39
349.032	9341.34
347.305	9740.13
345.577	9878.33
343.848	9916.67
342.119	9952.1
340.39	10296.9
338.661	10452.2
336.931	10529.4
335.2	10752.5
333.47	10698.1
331.739	11163.7
330.007	11219
328.275	11433.1
326.543	11841.9
324.811	11912.9
323.078	12214.7
321.344	12473.1
319.611	12672.2
317.877	12607.5
316.142	12815.2
314.407	13204.3
312.672	13607.7
310.936	14034
309.2	13994.9
307.464	14292.8
305.727	14606.3
303.99	14996
302.253	15212.9
300.515	15218.2
298.777	15619
297.038	15862.9
295.299	16325.3
293.559	16201
291.82	16742.1
290.08	16783
288.339	17201.6
286.598	17420.4
284.857	17446.8
283.115	17636.8
281.373	17690.4
279.631	17911.8
277.888	17763
276.145	18091.9
274.401	17986.2
272.657	18228.9
270.913	18288
269.168	18268.3
267.423	18583.8
265.678	18383.6
263.932	18663.1
262.186	18558.9
260.439	18735.3
258.692	18931.6
256.945	19089.2
255.197	19261.1
253.449	19384.2
251.701	19430.1
249.952	19597.5
248.203	19391.8
246.453	19847.8
244.703	19699.3
242.953	20030.7
241.202	20199.3
239.451	20490.5
237.7	20611.8
235.948	20787.3
234.196	20794.3
232.443	21216.4
230.69	21150.6
228.937	21265.9
227.183	21357
225.429	21847.1
223.675	21795.5
221.92	21887.8
220.165	22002.9
218.41	22277.4
216.654	22047.9
214.898	22273.9
213.141	22539.7
211.384	22308.8
209.627	22637.1
207.869	22552.7
206.111	22650.5
204.353	23207.4
202.594	23106
200.835	23104.1
199.075	23474.5
197.316	23556.4
195.555	23313
193.795	23630.6
192.034	23699.7
190.273	23790
188.511	23834.9
186.749	23706.6
184.987	23944.5
183.224	23605
181.461	23601.7
179.698	23399.9
177.934	23161.4
176.17	23107.2
174.406	23030.4
172.641	22847.3
170.876	22519.9
169.11	22487.2
167.345	22222.3
165.578	21997.2
163.812	21925
162.045	22124.5
160.278	22029.7
158.51	22067.9
156.743	21922.2
154.974	22340.8
153.206	22198
151.437	22285.6
149.668	22514.6
147.898	22270.2
146.128	22737.8
144.358	22699.6
142.588	23244.6
140.817	22939.6
139.046	23317.9
137.274	23162.6
135.502	23465.9
133.73	23443.3
131.958	23313.5
130.185	23372.7
128.412	23626.5
126.638	23947.9
124.865	23553.2
123.091	23823.7
121.316	24157.7
119.542	23854.7
117.767	24622.3
115.991	24543.4
114.216	25023.4
112.44	25376.6
110.663	25956.3
108.887	26330.4
107.11	26584.8
105.333	26848.9
103.555	26906.3
101.778	27021.3
99.9995	26625.8
98.2212	26237.6
96.4425	25654.2
94.6635	25260.7
92.8843	25069.6
91.1048	24242.3
89.3249	24206
87.5448	23981.6
85.7644	23680.1
83.9838	23578
82.2028	23404.5
80.4215	23284.3
78.64	23074.3
76.8582	23060.9
75.0761	22583.2
73.2938	22550.3
71.5112	22157
69.7283	21957.3
67.9451	21548.8
66.1617	21377.4
64.378	20896.3
62.594	20496.6
60.8098	19532.4
59.0254	18137
