988.543	5361.15
986.95	5395.68
985.357	5514.92
983.763	5365.89
982.169	5455.3
980.574	5488.23
978.979	5450.63
977.383	5480.42
975.787	5577.55
974.19	5705.95
972.593	5576
970.996	5680.86
969.398	5629.23
967.8	5735.6
966.201	5818.46
964.602	5762.16
963.002	5826.23
961.402	5793.41
959.801	5840.26
958.2	6055.75
956.599	6030.72
954.997	5913.62
953.395	6010.35
951.792	5996.28
950.189	6211.48
948.586	6172.43
946.982	6133.42
945.377	6131.82
943.773	6237.73
942.168	6298.42
940.562	6180.03
938.956	6436.86
937.35	6453.9
935.743	6427.37
934.136	6506.63
932.528	6467.67
930.92	6571.77
929.312	6602.77
927.703	6613.56
926.094	6726.89
924.484	6670.87
922.874	6897.49
921.263	6787.13
919.653	6850.66
918.042	6802.45
916.43	7049.01
914.818	7051.96
913.206	6940.18
911.593	7050.13
909.98	7057.75
908.366	7195.52
906.752	7145.79
905.138	7295.88
903.523	7261.65
901.908	7261.5
900.293	7205.63
898.677	7409.74
897.061	7290.46
895.445	7500.65
893.828	7531.39
892.21	7418.36
890.593	7602.12
888.975	7620.47
887.356	7621.83
885.738	7709.68
884.119	7743.45
882.499	7837.42
880.879	7851.09
879.259	7850.88
877.638	7876.9
876.018	8032.46
874.396	7921.2
872.775	7965.7
871.153	8039.47
869.53	8025.37
867.908	8039.02
866.284	8131.22
864.661	8238.79
863.037	8160.02
861.413	8364.52
859.789	8456.59
858.164	8485.54
856.539	8365.27
854.913	8538.81
853.287	8493.93
851.661	8602.8
850.035	8544.11
848.408	8496.2
846.78	8586.58
845.153	8455.74
843.525	8469.32
841.897	8403.06
840.268	8229.38
838.639	8287.51
837.01	8410.07
835.38	8313.21
833.75	8354.43
832.12	8395.64
830.489	8205.33
828.858	8263.42
827.227	8411.91
825.595	8404.06
823.963	8310.43
822.331	8273.5
820.698	8264.16
819.065	8173.69
817.432	8119.99
815.798	8266.79
814.164	7966.76
812.53	7937.62
810.895	7954.38
809.26	7755.53
807.625	7827.35
805.99	7741.72
804.354	7752.4
802.717	7773.77
801.081	7675.99
799.444	7598.1
797.807	7526.35
796.169	7472.95
794.531	7393.63
792.893	7518.83
791.254	7433.43
789.615	7384.68
787.976	7215.46
786.337	7320.79
784.697	7281.24
783.057	7266.1
781.416	7337.83
779.775	7255.64
778.134	7191.77
776.493	7170.57
774.851	7181.36
773.209	7356.57
771.567	7282.08
769.924	7438.94
768.281	7334.04
766.638	7325.01
764.994	7399.65
763.35	7335.87
761.706	7460.65
760.061	7497.22
758.416	7424.35
756.771	7387.97
755.125	7561.27
753.48	7619.06
751.833	7637.34
750.187	7603.99
748.54	7645.05
746.893	7645.1
745.245	7566.25
743.598	7774.18
741.95	7775.74
740.301	7848.57
738.653	8006.29
737.003	8088.15
735.354	7919.88
733.705	8104.78
732.055	8044.15
730.404	8047.17
728.754	8056.24
727.103	8236.44
725.452	8219.73
723.8	8219.69
722.148	8460.29
720.496	8383.03
718.844	8425.32
717.191	8348.09
715.538	8481.11
713.884	8544.53
712.231	8645.71
710.577	8580.6
708.922	8737.65
707.268	8846.3
705.613	8840.1
703.957	8910.92
702.302	8848.84
700.646	8989.09
698.99	9108.15
697.333	9273.95
695.676	9201.28
694.019	9342.86
692.362	9326.02
690.704	9588.17
689.046	9685.87
687.388	9828.76
685.729	9778.68
684.07	9895.88
682.41	9934.69
680.751	10041.3
679.091	10197.5
677.431	10180.5
675.77	10270.4
674.109	10464.2
672.448	10590.1
670.786	10699.5
669.124	11025.4
667.462	10936.1
665.8	11225.7
664.137	11340.9
662.474	11301.2
660.811	11628.2
659.147	11813.8
657.483	11784.5
655.818	12121.7
654.154	12011.3
652.489	12372.4
650.823	12144.9
649.158	12460.8
647.492	12401.4
645.826	13080.2
644.159	12906.7
642.492	13018.2
640.825	13086.2
639.157	13107.7
637.489	13204.1
635.821	13543.3
634.153	13316
632.484	13482.7
630.815	13481.6
629.145	13455.1
627.476	13510.9
625.806	13363.1
624.135	13487.8
622.464	13435.8
620.793	13567.9
619.122	13424.7
617.45	13096.1
615.778	13192.2
614.106	12981.9
612.433	12989.9
610.76	12873.8
609.087	12963.9
607.414	12824
605.74	12766.3
604.065	12626.4
602.391	12595.6
600.716	12640.9
599.041	12240
597.365	12236.2
595.689	12099.5
594.013	12122.5
592.336	11725
590.659	11901.6
588.982	11425.3
587.305	11341.1
585.627	11224.2
583.949	11166.9
582.27	10911.5
580.591	10846.8
578.912	10905.7
577.233	10829.2
575.553	10981.8
573.873	10923.1
572.192	10843.6
570.511	10768.6
568.83	10689.1
567.149	10676.6
565.467	10603.2
563.785	10507.4
562.102	10399.8
560.42	10164.5
558.736	10260.6
557.053	10332.8
555.369	10116.9
553.685	10171.3
552	10153
550.316	10051.5
548.631	9947.15
546.945	9838.37
545.259	9668.83
543.573	9511.22
541.887	9501.9
540.2	9270.27
538.512	9255.08
536.825	9029.52
535.137	9106.2
533.449	8797.83
531.76	8921.9
530.071	8600.36
528.382	8749.58
526.693	8617.6
525.003	8618.81
523.313	8520.93
521.622	8335.83
519.931	8428.76
518.24	8375.31
516.548	8168.18
514.856	8222.66
513.164	7994.96
511.471	7959.36
509.778	8010.89
508.085	8055.02
506.391	7991.38
504.697	7704.92
503.003	7740.22
501.308	7601.44
499.613	7838.8
497.917	7601.26
496.222	7539.25
494.525	7465.47
492.829	7256.15
491.132	7229.6
489.435	7097.01
487.737	7247.23
486.039	7284.01
484.341	7279.55
482.643	7333.97
480.944	7225.02
479.244	7233.82
477.545	7029.33
475.845	7114.62
474.144	7048.45
472.444	7127.82
470.742	7044.03
469.041	6880.93
467.339	6897.11
465.637	6886.85
463.935	6792.89
462.232	6763.57
460.528	6820.86
458.825	6603.7
457.121	6694.74
455.417	6625.85
453.712	6600.99
452.007	6642.12
450.302	6521.97
448.596	6546.97
446.89	6571.96
445.183	6377.18
443.476	6422.7
441.769	6343.72
440.062	6494.63
438.354	6466.9
436.645	6392.35
434.937	6437.81
433.228	6398.4
431.518	6430.68
429.809	6429.3
428.098	6470.32
426.388	6463.09
424.677	6433.94
422.966	6631.25
421.254	6613.76
419.542	6615.26
417.83	6676.62
416.117	6838.67
414.404	6791.96
412.691	6861.99
410.977	6885.31
409.263	6888.2
407.548	6832.76
405.833	6926.05
404.118	6754.02
402.403	6796.28
400.687	6892.42
398.97	6911.32
397.253	6854.49
395.536	6909.78
393.819	7045.11
392.101	7088.7
390.383	7132.26
388.664	7308.18
386.945	7203.34
385.226	7147.97
383.506	7220.56
381.786	7234.97
380.065	7226.13
378.344	7426.49
376.623	7301.42
374.902	7295.47
373.18	7444.87
371.457	7601.46
369.734	7663.65
368.011	7643.12
366.288	7705.27
364.564	7784.8
362.84	7961.44
361.115	7903.17
359.39	8018.83
357.665	8257.6
355.939	8179.02
354.213	8398.82
352.486	8376.71
350.759	8464.64
349.032	8526.47
347.305	8851.64
345.577	8898.89
343.848	8950.46
342.119	8984.65
340.39	9131.6
338.661	9209.1
336.931	9553.92
335.2	9641.41
333.47	9629.19
331.739	9967.91
330.007	9834.33
328.275	9983.75
326.543	10387.1
324.811	10356
323.078	10665.3
321.344	10765.4
319.611	10907.2
317.877	11184.5
316.142	11218.1
314.407	11309.3
312.672	11466.8
310.936	11879.1
309.2	12073.8
307.464	12351.9
305.727	12326.2
303.99	12686.2
302.253	12882
300.515	13126.6
298.777	13283.4
297.038	13458.8
295.299	13793.7
293.559	13999.1
291.82	14080.8
290.08	14251.6
288.339	14413.7
286.598	14796.8
284.857	14713.2
283.115	15073.2
281.373	15125.9
279.631	15095.3
277.888	15106.4
276.145	15305.3
274.401	15395.2
272.657	15717.3
270.913	15401.5
269.168	15525.7
267.423	15677
265.678	15606.3
263.932	15836.4
262.186	15625.4
260.439	15633.5
258.692	15747.5
256.945	15819.9
255.197	15969.6
253.449	15963.3
251.701	15948.5
249.952	16238.1
248.203	16024.5
246.453	16065.4
244.703	16222
242.953	16308.5
241.202	16373.6
239.451	16777.1
237.7	16863.4
235.948	16604.4
234.196	17057.5
232.443	17320.6
230.69	17627.9
228.937	17283.4
227.183	17604.8
225.429	17846.3
223.675	17892.4
221.92	17994.1
220.165	18000.3
218.41	18261.4
216.654	18348.8
214.898	18554.2
213.141	18497.7
211.384	18673.2
209.627	18736.2
207.869	18528.9
206.111	18833.7
204.353	18791.4
202.594	18817.4
200.835	18850.5
199.075	19182
197.316	19315.9
195.555	19026.5
193.795	19313.8
192.034	19387.9
190.273	19284.7
188.511	19323.4
186.749	19596.2
184.987	19641.9
183.224	19548.6
181.461	19436.9
179.698	19435.9
177.934	19308.7
176.17	19445.2
174.406	19217.5
172.641	19246.3
170.876	18894.1
169.11	18981
167.345	18630.4
165.578	18638.1
163.812	18453.4
162.045	18444.1
160.278	17938.4
158.51	18108.9
156.743	18143.6
154.974	18335.2
153.206	18112.6
151.437	18082.3
149.668	18392.6
147.898	18060
146.128	18401.2
144.358	18419
142.588	18459.3
140.817	18403.7
139.046	18627.5
137.274	18650.9
135.502	19019.9
133.73	18697.6
131.958	18709.7
130.185	18779.7
128.412	18663.5
126.638	18856.1
124.865	18587.7
123.091	19138.2
121.316	19092.5
119.542	18870.8
117.767	19519.6
115.991	19368.3
114.216	19604.3
112.44	20037.2
110.663	20215.3
108.887	20643.9
107.11	20933
105.333	21288.1
103.555	21148.1
101.778	21207.8
99.9995	20969.4
98.2212	20341.7
96.4425	20151.4
94.6635	19829.1
92.8843	19457.7
91.1048	19010.6
89.3249	18647.9
87.5448	18185.7
85.7644	18302.1
83.9838	17939.8
82.2028	17725
80.4215	17993
78.64	17708.2
76.8582	17504.8
75.0761	17340.7
73.2938	17089.8
71.5112	16871.2
69.7283	16749.5
67.9451	16449.7
66.1617	16588.9
64.378	16196.7
62.594	15803.4
60.8098	15197.2
59.0254	14389.4
